 # n       sqrt(n)     drms   
           1  0.600000024       5.58348186E-02
           2  0.848528147      0.466970086    
           3   1.03923047      0.714263201    
           4   1.20000005      0.718705535    
           5   1.34164083      0.951682091    
           6   1.46969390       1.33149409    
           7   1.58745086       1.35922611    
           8   1.69705629       1.45655227    
           9   1.80000007       1.50207937    
          10   1.89736664       1.65621865    
          11   1.98997498       1.78892434    
          12   2.07846093       1.87774658    
          13   2.16333079       2.31138301    
          14   2.24499464       2.45359159    
          15   2.32379007       2.49814153    
          16   2.40000010       2.54915428    
          17   2.47386336       2.59382772    
          18   2.54558444       2.60975718    
          19   2.61533952       2.61253786    
          20   2.68328166       2.83957720    
          21   2.74954557       2.89427519    
          22   2.81424952       2.92298508    
          23   2.87749910       2.92492294    
          24   2.93938780       2.93016505    
          25   3.00000000       2.93449903    
          26   3.05941176       2.96978092    
          27   3.11769152       2.97519207    
          28   3.17490172       3.08185434    
          29   3.23109889       3.08769655    
          30   3.28633571       3.26311278    
          31   3.34065866       3.37332511    
          32   3.39411259       3.45913124    
          33   3.44673777       3.63790011    
          34   3.49857116       3.71695900    
          35   3.54964805       3.72617936    
          36   3.60000014       3.74650145    
          37   3.64965773       3.75681543    
          38   3.69864845       3.83045125    
          39   3.74699903       3.85371876    
          40   3.79473329       3.97650743    
          41   3.84187484       4.01772738    
          42   3.88844442       4.03215218    
          43   3.93446326       4.04868221    
          44   3.97994995       4.08574533    
          45   4.02492237       4.14130831    
          46   4.06939840       4.15227509    
          47   4.11339283       4.18121052    
          48   4.15692186       4.18469191    
          49   4.20000029       4.29778194    
          50   4.24264097       4.33607388    
          51   4.28485727       4.39846420    
          52   4.32666159       4.44418049    
          53   4.36806631       4.48028088    
          54   4.40908194       4.52041483    
          55   4.44971895       4.53941488    
          56   4.48998928       4.62646055    
          57   4.52990055       4.63593817    
          58   4.56946421       4.74961329    
          59   4.60868740       4.76477623    
          60   4.64758015       4.82707596    
          61   4.68615007       4.87674665    
          62   4.72440481       4.88740349    
          63   4.76235247       4.91329479    
          64   4.80000019       4.91669178    
          65   4.83735466       5.04475451    
          66   4.87442350       5.09284449    
          67   4.91121149       5.14035606    
          68   4.94772673       5.18264818    
          69   4.98397446       5.20579243    
          70   5.01996040       5.29617405    
          71   5.05568981       5.31202984    
          72   5.09116888       5.35475922    
          73   5.12640238       5.36255741    
          74   5.16139555       5.43902826    
          75   5.19615269       5.45066452    
          76   5.23067904       5.50517845    
          77   5.26497889       5.57929897    
          78   5.29905653       5.59425259    
          79   5.33291674       5.66391182    
          80   5.36656332       5.72018814    
          81   5.40000010       5.74605417    
          82   5.43323135       5.76117182    
          83   5.46626043       5.77612734    
          84   5.49909115       5.77884722    
          85   5.53172684       5.78950548    
          86   5.56417131       5.79439831    
          87   5.59642792       5.87796450    
          88   5.62849903       5.88187551    
          89   5.66038895       5.88437986    
          90   5.69209957       5.91254234    
          91   5.72363567       5.93346786    
          92   5.75499821       5.98757172    
          93   5.78619099       6.02669954    
          94   5.81721640       6.02938318    
          95   5.84807682       6.03366566    
          96   5.87877560       6.06038809    
          97   5.90931511       6.11443472    
          98   5.93969727       6.11677837    
          99   5.96992445       6.11862421    
         100   6.00000000       6.14329815    
         101   6.02992535       6.15444183    
         102   6.05970287       6.25071192    
         103   6.08933496       6.26564980    
         104   6.11882353       6.29437542    
         105   6.14817095       6.30764818    
         106   6.17737865       6.35987806    
         107   6.20644808       6.43305969    
         108   6.23538303       6.43412638    
         109   6.26418447       6.43413830    
         110   6.29285336       6.44774055    
         111   6.32139254       6.54214478    
         112   6.34980345       6.57081461    
         113   6.37808800       6.58173895    
         114   6.40624714       6.58479357    
         115   6.43428373       6.61655521    
         116   6.46219778       6.64206028    
         117   6.48999262       6.66122103    
         118   6.51766872       6.71061468    
         119   6.54522753       6.71656513    
         120   6.57267141       6.78578568    
         121   6.60000038       6.79399586    
         122   6.62721682       6.81907368    
         123   6.65432215       6.87490368    
         124   6.68131733       6.87683105    
         125   6.70820427       6.88226032    
         126   6.73498344       6.92092228    
         127   6.76165676       6.99471378    
         128   6.78822517       7.00160933    
         129   6.81469011       7.01950455    
         130   6.84105301       7.07592154    
         131   6.86731434       7.11617231    
         132   6.89347553       7.13083029    
         133   6.91953754       7.14292955    
         134   6.94550276       7.14499331    
         135   6.97137022       7.15239620    
         136   6.99714231       7.19335651    
         137   7.02282000       7.19856119    
         138   7.04840422       7.21181536    
         139   7.07389593       7.23147345    
         140   7.09929609       7.29633141    
         141   7.12460566       7.31870556    
         142   7.14982557       7.32447433    
         143   7.17495680       7.35068512    
         144   7.20000029       7.36627913    
         145   7.22495699       7.37377214    
         146   7.24982786       7.37644053    
         147   7.27461338       7.42612934    
         148   7.29931545       7.44183969    
         149   7.32393360       7.45182657    
         150   7.34846973       7.45867920    
         151   7.37292385       7.48571825    
         152   7.39729691       7.48901844    
         153   7.42159033       7.54747868    
         154   7.44580460       7.58991385    
         155   7.46994019       7.60034227    
         156   7.49399805       7.60060740    
         157   7.51797915       7.63211393    
         158   7.54188347       7.68671036    
         159   7.56571245       7.74847174    
         160   7.58946657       7.75982809    
         161   7.61314678       7.80251837    
         162   7.63675356       7.80395174    
         163   7.66028738       7.86355352    
         164   7.68374968       7.86473656    
         165   7.70713997       7.87286425    
         166   7.73045969       7.90628099    
         167   7.75370884       7.92305231    
         168   7.77688885       7.93820572    
         169   7.80000019       7.97644329    
         170   7.82304287       8.02643299    
         171   7.84601831       8.06322002    
         172   7.86892653       8.06812572    
         173   7.89176798       8.06897354    
         174   7.91454363       8.09701633    
         175   7.93725443       8.10723591    
         176   7.95989990       8.10800552    
         177   7.98248100       8.12188339    
         178   8.00499916       8.12703705    
         179   8.02745342       8.14717293    
         180   8.04984474       8.20934296    
         181   8.07217503       8.23438358    
         182   8.09444332       8.23693371    
         183   8.11664963       8.24544334    
         184   8.13879681       8.24984932    
         185   8.16088295       8.25799274    
         186   8.18290901       8.26161098    
         187   8.20487690       8.30136013    
         188   8.22678566       8.32512379    
         189   8.24863720       8.33956718    
         190   8.27042961       8.34565353    
         191   8.29216576       8.34961891    
         192   8.31384373       8.39021206    
         193   8.33546638       8.39842415    
         194   8.35703373       8.39902592    
         195   8.37854481       8.41610813    
         196   8.40000057       8.43067360    
         197   8.42140102       8.53822708    
         198   8.44274902       8.54051590    
         199   8.46404171       8.54888630    
         200   8.48528194       8.56316376    
         201   8.50646877       8.57267094    
         202   8.52760220       8.57586479    
         203   8.54868412       8.57840347    
         204   8.56971455       8.57924747    
         205   8.59069347       8.63222790    
         206   8.61162090       8.64957142    
         207   8.63249779       8.68702793    
         208   8.65332317       8.69582367    
         209   8.67409992       8.70145035    
         210   8.69482613       8.70968723    
         211   8.71550369       8.77956486    
         212   8.73613262       8.79267502    
         213   8.75671196       8.81938744    
         214   8.77724361       8.86730671    
         215   8.79772758       8.87757111    
         216   8.81816387       8.88202667    
         217   8.83855247       8.92417145    
         218   8.85889435       9.02840614    
         219   8.87918949       9.02881050    
         220   8.89943790       9.04224205    
         221   8.91964149       9.04943466    
         222   8.93979931       9.06335163    
         223   8.95991135       9.06439400    
         224   8.97997856       9.11187172    
         225   9.00000000       9.17641735    
         226   9.01997852       9.18534088    
         227   9.03991127       9.24741268    
         228   9.05980110       9.27504063    
         229   9.07964802       9.29013062    
         230   9.09945107       9.30263615    
         231   9.11921024       9.31340885    
         232   9.13892841       9.32729244    
         233   9.15860271       9.33049011    
         234   9.17823505       9.33591843    
         235   9.19782639       9.34789371    
         236   9.21737480       9.36740494    
         237   9.23688316       9.37240982    
         238   9.25634956       9.47026443    
         239   9.27577591       9.50788784    
         240   9.29516029       9.53587914    
         241   9.31450558       9.53773594    
         242   9.33380985       9.55667114    
         243   9.35307503       9.57485199    
         244   9.37230015       9.59324074    
         245   9.39148617       9.61285114    
         246   9.41063309       9.62407017    
         247   9.42973995       9.63177204    
         248   9.44880962       9.64248466    
         249   9.46784019       9.65731430    
         250   9.48683357       9.66613102    
         251   9.50578785       9.67496967    
         252   9.52470493       9.68042564    
         253   9.54358482       9.71807003    
         254   9.56242657       9.72986889    
         255   9.58123207       9.73648071    
         256   9.60000038       9.74120808    
         257   9.61873245       9.84081936    
         258   9.63742733       9.84334850    
         259   9.65608692       9.84522724    
         260   9.67470932       9.85085773    
         261   9.69329739       9.88003635    
         262   9.71184921       9.88789272    
         263   9.73036575       9.88885880    
         264   9.74884701       9.89341545    
         265   9.76729202       9.90756512    
         266   9.78570461       9.92767239    
         267   9.80408192       9.94330788    
         268   9.82242298       9.94660187    
         269   9.84073257       9.94918442    
         270   9.85900688       9.95970821    
         271   9.87724686       9.96301460    
         272   9.89545345       9.97502613    
         273   9.91362667       9.97598648    
         274   9.93176842       9.97850227    
         275   9.94987488       10.0438042    
         276   9.96794891       10.0596962    
         277   9.98599052       10.0793686    
         278   10.0039997       10.1326284    
         279   10.0219765       10.1350784    
         280   10.0399208       10.1458006    
         281   10.0578327       10.1600790    
         282   10.0757141       10.1863890    
         283   10.0935621       10.1924400    
         284   10.1113796       10.2074718    
         285   10.1291656       10.2158842    
         286   10.1469212       10.2238245    
         287   10.1646452       10.2593374    
         288   10.1823378       10.2685261    
         289   10.2000008       10.2712116    
         290   10.2176323       10.2805691    
         291   10.2352333       10.2853231    
         292   10.2528048       10.3290949    
         293   10.2703457       10.3385096    
         294   10.2878580       10.3452520    
         295   10.3053389       10.3650913    
         296   10.3227911       10.3738623    
         297   10.3402138       10.3743763    
         298   10.3576059       10.3768082    
         299   10.3749704       10.3788471    
         300   10.3923054       10.3919859    
         301   10.4096117       10.3967113    
         302   10.4268885       10.3976870    
         303   10.4441376       10.4058971    
         304   10.4613581       10.4080811    
         305   10.4785500       10.4192762    
         306   10.4957132       10.4487171    
         307   10.5128498       10.4609442    
         308   10.5299578       10.4650221    
         309   10.5470381       10.4651890    
         310   10.5640907       10.4859886    
         311   10.5811157       10.4917755    
         312   10.5981131       10.4925900    
         313   10.6150846       10.5056458    
         314   10.6320276       10.5218210    
         315   10.6489439       10.5249891    
         316   10.6658335       10.5352211    
         317   10.6826963       10.5365686    
         318   10.6995325       10.5901079    
         319   10.7163429       10.5939531    
         320   10.7331266       10.6048803    
         321   10.7498846       10.6175594    
         322   10.7666159       10.6209316    
         323   10.7833204       10.7250977    
         324   10.8000002       10.7251616    
         325   10.8166542       10.7322998    
         326   10.8332825       10.7460413    
         327   10.8498850       10.7617569    
         328   10.8664627       10.8298597    
         329   10.8830147       10.8373156    
         330   10.8995409       10.8905497    
         331   10.9160433       10.8967428    
         332   10.9325209       10.9020519    
         333   10.9489727       11.0314245    
         334   10.9654007       11.0796995    
         335   10.9818039       11.0971336    
         336   10.9981823       11.0998821    
         337   11.0145359       11.1017780    
         338   11.0308666       11.1046085    
         339   11.0471725       11.1247787    
         340   11.0634537       11.1627359    
         341   11.0797110       11.1772308    
         342   11.0959454       11.1848202    
         343   11.1121559       11.1887751    
         344   11.1283426       11.1893044    
         345   11.1445055       11.1924067    
         346   11.1606464       11.1924934    
         347   11.1767616       11.2278156    
         348   11.1928558       11.2458448    
         349   11.2089252       11.2466974    
         350   11.2249718       11.2533617    
         351   11.2409973       11.2662706    
         352   11.2569981       11.3026257    
         353   11.2729769       11.3101683    
         354   11.2889328       11.3248987    
         355   11.3048668       11.3293753    
         356   11.3207779       11.3300104    
         357   11.3366661       11.3434458    
         358   11.3525324       11.3677692    
         359   11.3683777       11.3724222    
         360   11.3841991       11.4166965    
         361   11.4000006       11.4291954    
         362   11.4157791       11.4302101    
         363   11.4315357       11.4320660    
         364   11.4472713       11.4333553    
         365   11.4629841       11.4616117    
         366   11.4786758       11.4771519    
         367   11.4943466       11.4875412    
         368   11.5099964       11.4921904    
         369   11.5256243       11.5339785    
         370   11.5412312       11.5607233    
         371   11.5568161       11.5627041    
         372   11.5723820       11.5749331    
         373   11.5879250       11.5804749    
         374   11.6034479       11.5854998    
         375   11.6189499       11.5896626    
         376   11.6344328       11.5947828    
         377   11.6498938       11.6339226    
         378   11.6653337       11.6531296    
         379   11.6807537       11.6623764    
         380   11.6961536       11.6669893    
         381   11.7115326       11.6697664    
         382   11.7268925       11.7263098    
         383   11.7422314       11.7290764    
         384   11.7575512       11.7440100    
         385   11.7728500       11.8147755    
         386   11.7881298       11.8270378    
         387   11.8033895       11.8358526    
         388   11.8186302       11.8518448    
         389   11.8338509       11.8973904    
         390   11.8490505       11.9071674    
         391   11.8642321       11.9141512    
         392   11.8793945       11.9255123    
         393   11.8945370       11.9391785    
         394   11.9096603       11.9463158    
         395   11.9247646       11.9463634    
         396   11.9398489       11.9483986    
         397   11.9549150       11.9590406    
         398   11.9699631       11.9848337    
         399   11.9849911       11.9925842    
         400   12.0000000       11.9937401    
         401   12.0149908       11.9962349    
         402   12.0299635       11.9991646    
         403   12.0449162       12.0026169    
         404   12.0598507       12.0088158    
         405   12.0747671       12.0649576    
         406   12.0896654       12.0846128    
         407   12.1045446       12.1216707    
         408   12.1194057       12.1277838    
         409   12.1342497       12.1279745    
         410   12.1490746       12.1319923    
         411   12.1638813       12.1385546    
         412   12.1786699       12.1439085    
         413   12.1934414       12.1742210    
         414   12.2081947       12.1868887    
         415   12.2229300       12.1945438    
         416   12.2376471       12.2010689    
