 # n       sqrt(n)     drms   
           1   6.67999983E-02   7.56567121E-02
           2   9.44694653E-02  0.132003605    
           3  0.115700990      0.196660385    
           4  0.133599997      0.198704392    
           5  0.149369344      0.205886379    
           6  0.163625911      0.239187613    
           7  0.176736176      0.260781676    
           8  0.188938931      0.266348243    
           9  0.200399995      0.269653469    
          10  0.211240143      0.282287687    
          11  0.221550539      0.283954471    
          12  0.231401980      0.298150390    
          13  0.240850821      0.306286722    
          14  0.249942720      0.309355468    
          15  0.258715302      0.317920476    
          16  0.267199993      0.333024144    
          17  0.275423437      0.342508197    
          18  0.283408374      0.358958572    
          19  0.291174442      0.364978671    
          20  0.298738688      0.371216774    
          21  0.306116045      0.372538179    
          22  0.313319772      0.372914404    
          23  0.320361555      0.379574090    
          24  0.327251822      0.392018318    
          25  0.333999991      0.392653018    
          26  0.340614498      0.400866538    
          27  0.347102970      0.402077287    
          28  0.353472352      0.441138148    
          29  0.359728992      0.445611298    
          30  0.365878671      0.455061525    
          31  0.371926636      0.456211865    
          32  0.377877861      0.459245384    
          33  0.383736759      0.468427747    
          34  0.389507562      0.470538139    
          35  0.395194143      0.473775238    
          36  0.400799990      0.477637559    
          37  0.406328529      0.481217533    
          38  0.411782831      0.483880043    
          39  0.417165846      0.484441876    
          40  0.422480285      0.485316515    
          41  0.427728683      0.495514214    
          42  0.432913452      0.497137487    
          43  0.438036859      0.514720678    
          44  0.443101078      0.518942535    
          45  0.448107988      0.519141197    
          46  0.453059644      0.524991691    
          47  0.457957715      0.537217021    
          48  0.462803960      0.539559305    
          49  0.467599988      0.542326927    
          50  0.472347319      0.543923378    
          51  0.477047414      0.547015011    
          52  0.481701642      0.551040471    
          53  0.486311316      0.559782326    
          54  0.490877748      0.572576523    
          55  0.495402038      0.576799512    
          56  0.499885440      0.581978023    
          57  0.504328907      0.588681042    
          58  0.508733630      0.597843289    
          59  0.513100505      0.601693511    
          60  0.517430604      0.601975024    
          61  0.521724701      0.606741965    
          62  0.525983691      0.611311734    
          63  0.530208528      0.613881350    
          64  0.534399986      0.614817441    
          65  0.538558781      0.616940916    
          66  0.542685747      0.621410251    
          67  0.546781540      0.628122330    
          68  0.550846875      0.631062806    
          69  0.554882407      0.632726312    
          70  0.558888853      0.641560495    
          71  0.562866747      0.644835770    
          72  0.566816747      0.646476626    
          73  0.570739388      0.649686396    
          74  0.574635327      0.658049703    
          75  0.578504980      0.659452379    
          76  0.582348883      0.662240326    
          77  0.586167574      0.669847071    
          78  0.589961588      0.669898927    
          79  0.593731344      0.671101928    
          80  0.597477376      0.673646152    
          81  0.601199985      0.674505293    
          82  0.604899764      0.681099117    
          83  0.608576953      0.682675421    
          84  0.612232089      0.684983611    
          85  0.615865529      0.686106324    
          86  0.619477689      0.688971817    
          87  0.623068929      0.690844119    
          88  0.626639545      0.692410052    
          89  0.630189896      0.693704665    
          90  0.633720398      0.698560596    
          91  0.637231410      0.705114961    
          92  0.640723109      0.705211818    
          93  0.644195855      0.706406832    
          94  0.647650063      0.707162678    
          95  0.651085854      0.708898723    
          96  0.654503644      0.709739745    
          97  0.657903671      0.718453944    
          98  0.661286235      0.723155439    
          99  0.664651573      0.725733101    
         100  0.667999983      0.726462722    
         101  0.671331644      0.729240060    
         102  0.674646854      0.734762669    
         103  0.677945912      0.738696039    
         104  0.681228995      0.739478827    
         105  0.684496343      0.742311835    
         106  0.687748075      0.742567778    
         107  0.690984547      0.743570447    
         108  0.694205940      0.746706665    
         109  0.697412491      0.747759163    
         110  0.700604320      0.751395226    
         111  0.703781664      0.756373048    
         112  0.706944704      0.761574864    
         113  0.710093737      0.763034344    
         114  0.713228822      0.765830517    
         115  0.716350198      0.767717481    
         116  0.719457984      0.768010676    
         117  0.722552478      0.770616055    
         118  0.725633740      0.771329045    
         119  0.728701949      0.778925836    
         120  0.731757343      0.781165063    
         121  0.734799981      0.783245385    
         122  0.737830043      0.783665478    
         123  0.740847766      0.788397729    
         124  0.743853271      0.790378749    
         125  0.746846676      0.791175544    
         126  0.749828100      0.791740000    
         127  0.752797723      0.803277731    
         128  0.755755723      0.808455169    
         129  0.758702159      0.810203552    
         130  0.761637151      0.810662329    
         131  0.764560938      0.814629018    
         132  0.767473519      0.816938758    
         133  0.770375133      0.820752084    
         134  0.773265898      0.822809935    
         135  0.776145816      0.822979391    
         136  0.779015124      0.823369801    
         137  0.781873882      0.823901713    
         138  0.784722328      0.826893389    
         139  0.787560403      0.827866733    
         140  0.790388286      0.832034767    
         141  0.793206036      0.832601964    
         142  0.796013832      0.832824051    
         143  0.798811793      0.833645880    
         144  0.801599979      0.837293863    
         145  0.804378510      0.838706553    
         146  0.807147443      0.839519918    
         147  0.809906900      0.839891016    
         148  0.812657058      0.842360079    
         149  0.815397859      0.847556055    
         150  0.818129539      0.850872397    
         151  0.820852160      0.851464033    
         152  0.823565662      0.853336871    
         153  0.826270342      0.853921235    
         154  0.828966200      0.854084194    
         155  0.831653297      0.855398953    
         156  0.834331691      0.859152079    
         157  0.837001622      0.860551834    
         158  0.839662969      0.861990631    
         159  0.842315912      0.866910100    
         160  0.844960570      0.870125771    
         161  0.847596943      0.870433629    
         162  0.850225210      0.871327817    
         163  0.852845252      0.874987304    
         164  0.855457366      0.875683188    
         165  0.858061552      0.879367292    
         166  0.860657811      0.879484832    
         167  0.863246202      0.887017608    
         168  0.865826905      0.888579965    
         169  0.868399978      0.890321314    
         170  0.870965421      0.891127706    
         171  0.873523295      0.896425724    
         172  0.876073718      0.901899636    
         173  0.878616810      0.908119619    
         174  0.881152451      0.908258557    
         175  0.883680940      0.910735071    
         176  0.886202157      0.911470830    
         177  0.888716161      0.913253367    
         178  0.891223133      0.913408518    
         179  0.893723071      0.915190995    
         180  0.896215975      0.918340802    
         181  0.898702025      0.923398793    
         182  0.901181281      0.932236016    
         183  0.903653622      0.934476793    
         184  0.906119287      0.936773837    
         185  0.908578217      0.941018522    
         186  0.911030531      0.943476379    
         187  0.913476229      0.947327554    
         188  0.915915430      0.950552166    
         189  0.918348193      0.951632619    
         190  0.920774460      0.955478907    
         191  0.923194349      0.958700478    
         192  0.925607920      0.961322427    
         193  0.928015232      0.962542951    
         194  0.930416346      0.965005577    
         195  0.932811201      0.965482593    
         196  0.935199976      0.965988934    
         197  0.937582612      0.969788909    
         198  0.939959288      0.970090270    
         199  0.942329943      0.970948875    
         200  0.944694638      0.973529935    
         201  0.947053432      0.974076867    
         202  0.949406326      0.975592792    
         203  0.951753438      0.976043999    
         204  0.954094827      0.978991449    
         205  0.956430435      0.979763269    
         206  0.958760381      0.981617928    
         207  0.961084664      0.985057116    
         208  0.963403285      0.985232651    
         209  0.965716362      0.986276984    
         210  0.968023956      0.991151214    
         211  0.970326006      0.992069662    
         212  0.972622633      0.998571336    
         213  0.974913895      0.999651253    
         214  0.977199674       1.00308371    
         215  0.979480207       1.00518298    
         216  0.981755495       1.01334918    
         217  0.984025419       1.01394022    
         218  0.986290157       1.01429355    
         219  0.988549709       1.01475334    
         220  0.990804076       1.02012837    
         221  0.993053377       1.02975535    
         222  0.995297611       1.03067017    
         223  0.997536719       1.03101683    
         224  0.999770880       1.03191280    
         225   1.00199997       1.03192961    
         226   1.00422418       1.03436553    
         227   1.00644338       1.03483939    
         228   1.00865781       1.03674150    
         229   1.01086736       1.03720832    
         230   1.01307213       1.03737736    
         231   1.01527202       1.03770196    
         232   1.01746726       1.04053521    
         233   1.01965773       1.04379368    
         234   1.02184343       1.05010939    
         235   1.02402461       1.05279434    
         236   1.02620101       1.05517697    
         237   1.02837288       1.05917072    
         238   1.03054023       1.06290126    
         239   1.03270292       1.06934893    
         240   1.03486121       1.07098198    
         241   1.03701484       1.07443440    
         242   1.03916407       1.07524025    
         243   1.04130888       1.07529569    
         244   1.04344940       1.07599115    
         245   1.04558539       1.07736707    
         246   1.04771709       1.09010327    
         247   1.04984438       1.09205890    
         248   1.05196738       1.09371912    
         249   1.05408621       1.09655511    
         250   1.05620074       1.09669554    
         251   1.05831099       1.09685731    
         252   1.06041706       1.09952891    
         253   1.06251895       1.10504615    
         254   1.06461680       1.10650671    
         255   1.06671047       1.10678971    
         256   1.06879997       1.10704863    
         257   1.07088542       1.10752094    
         258   1.07296681       1.10801232    
         259   1.07504427       1.10882640    
         260   1.07711756       1.10936737    
         261   1.07918704       1.11047971    
         262   1.08125246       1.11288059    
         263   1.08331394       1.11471272    
         264   1.08537149       1.11594248    
         265   1.08742511       1.11639106    
         266   1.08947504       1.11685896    
         267   1.09152102       1.11820054    
         268   1.09356308       1.11837673    
         269   1.09560144       1.11839449    
         270   1.09763598       1.12102926    
         271   1.09966683       1.12117660    
         272   1.10169375       1.12118769    
         273   1.10371709       1.12184834    
         274   1.10573673       1.12334359    
         275   1.10775268       1.12591505    
         276   1.10976481       1.12725031    
         277   1.11177349       1.12771320    
         278   1.11377859       1.12848723    
         279   1.11577988       1.13258970    
         280   1.11777771       1.13343966    
         281   1.11977196       1.13509226    
         282   1.12176275       1.13725686    
         283   1.12374985       1.13754463    
         284   1.12573349       1.14005935    
         285   1.12771380       1.14093673    
         286   1.12969053       1.14130676    
         287   1.13166368       1.14162803    
         288   1.13363349       1.14540756    
         289   1.13559997       1.14719486    
         290   1.13756299       1.14728963    
         291   1.13952255       1.14736450    
         292   1.14147878       1.15073860    
         293   1.14343178       1.15112209    
         294   1.14538145       1.15114260    
         295   1.14732766       1.15157545    
         296   1.14927065       1.15506184    
         297   1.15121031       1.15516686    
         298   1.15314674       1.15713966    
         299   1.15507996       1.15845680    
         300   1.15700996       1.15860021    
         301   1.15893662       1.15880930    
         302   1.16086018       1.15885055    
         303   1.16278052       1.16259909    
         304   1.16469777       1.16439378    
         305   1.16661179       1.16841233    
         306   1.16852272       1.17328608    
         307   1.17043054       1.17427051    
         308   1.17233515       1.18127823    
         309   1.17423677       1.18235946    
         310   1.17613542       1.18297791    
         311   1.17803085       1.18458903    
         312   1.17992318       1.18461251    
         313   1.18181264       1.18534756    
         314   1.18369901       1.18554735    
         315   1.18558240       1.18752694    
         316   1.18746269       1.19104218    
         317   1.18934011       1.19452453    
         318   1.19121456       1.20081389    
         319   1.19308615       1.20151114    
         320   1.19495475       1.20374179    
         321   1.19682038       1.20473719    
         322   1.19868314       1.20615506    
         323   1.20054293       1.20709431    
         324   1.20239997       1.20796585    
         325   1.20425403       1.20797873    
         326   1.20610535       1.20868075    
         327   1.20795381       1.21066856    
         328   1.20979953       1.21140897    
         329   1.21164227       1.21297681    
         330   1.21348214       1.21583319    
         331   1.21531940       1.21652496    
         332   1.21715391       1.21822786    
         333   1.21898556       1.22121286    
         334   1.22081459       1.22451890    
         335   1.22264075       1.22712088    
         336   1.22446418       1.22997272    
         337   1.22628498       1.23043180    
         338   1.22810304       1.23083949    
         339   1.22991848       1.23230159    
         340   1.23173106       1.23901272    
         341   1.23354113       1.24165118    
         342   1.23534858       1.24326956    
         343   1.23715329       1.24447048    
         344   1.23895538       1.24535322    
         345   1.24075484       1.24652672    
         346   1.24255180       1.24677205    
         347   1.24434602       1.24755335    
         348   1.24613786       1.24866438    
         349   1.24792695       1.24951935    
         350   1.24971354       1.25027847    
         351   1.25149763       1.25086093    
         352   1.25327909       1.25398850    
         353   1.25505805       1.25694621    
         354   1.25683451       1.26424479    
         355   1.25860846       1.26617980    
         356   1.26037979       1.26653898    
         357   1.26214874       1.26782560    
         358   1.26391518       1.26945245    
         359   1.26567936       1.27130938    
         360   1.26744080       1.27222431    
         361   1.26919997       1.27802467    
         362   1.27095675       1.27993691    
         363   1.27271092       1.28044057    
         364   1.27446282       1.28093684    
         365   1.27621210       1.28199625    
         366   1.27795923       1.28462756    
         367   1.27970386       1.28624797    
         368   1.28144622       1.28972936    
         369   1.28318608       1.29250705    
         370   1.28492367       1.29278696    
         371   1.28665888       1.29388630    
         372   1.28839171       1.29404080    
         373   1.29012227       1.29406250    
         374   1.29185045       1.29497218    
         375   1.29357636       1.29675901    
         376   1.29530013       1.29805207    
         377   1.29702139       1.29911363    
         378   1.29874039       1.30331874    
         379   1.30045712       1.30453002    
         380   1.30217171       1.30837440    
         381   1.30388391       1.31590414    
         382   1.30559397       1.31612039    
         383   1.30730164       1.31639087    
         384   1.30900729       1.31707239    
         385   1.31071055       1.31712639    
         386   1.31241179       1.31716883    
         387   1.31411064       1.31728566    
         388   1.31580734       1.31922591    
         389   1.31750190       1.32064164    
         390   1.31919420       1.32219791    
         391   1.32088447       1.32334077    
         392   1.32257247       1.32509196    
         393   1.32425845       1.33038056    
         394   1.32594216       1.33238661    
         395   1.32762372       1.33492744    
         396   1.32930315       1.33495843    
         397   1.33098054       1.33778846    
         398   1.33265579       1.33828855    
         399   1.33432901       1.34068418    
         400   1.33599997       1.34228981    
         401   1.33766890       1.34538329    
         402   1.33933580       1.34599769    
         403   1.34100056       1.34981918    
         404   1.34266329       1.35084307    
         405   1.34432399       1.35136092    
         406   1.34598255       1.35419083    
         407   1.34763920       1.35549271    
         408   1.34929371       1.35619032    
         409   1.35094643       1.35757148    
         410   1.35259688       1.35894239    
         411   1.35424531       1.36030173    
         412   1.35589182       1.36046696    
         413   1.35753632       1.36519575    
         414   1.35917890       1.36543429    
         415   1.36081946       1.36684072    
         416   1.36245799       1.36871850    
