 # n       sqrt(n)     drms   
           1   1.00000000       1.70293868    
           2   1.41421354       1.92041659    
           3   1.73205078       1.99449241    
           4   2.00000000       2.32980680    
           5   2.23606801       2.40124965    
           6   2.44948983       2.70591950    
           7   2.64575124       3.49141788    
           8   2.82842708       3.54626560    
           9   3.00000000       3.81287289    
          10   3.16227770       4.06300354    
          11   3.31662488       4.29651022    
          12   3.46410155       4.33774137    
          13   3.60555124       4.52283096    
          14   3.74165750       4.70531607    
          15   3.87298346       4.72334623    
          16   4.00000000       4.79165936    
          17   4.12310553       4.94165945    
          18   4.24264050       4.94752455    
          19   4.35889912       5.44665051    
          20   4.47213602       5.44683409    
          21   4.58257580       5.65437889    
          22   4.69041586       5.74873924    
          23   4.79583168       5.82923651    
          24   4.89897966       5.84380007    
          25   5.00000000       5.85832739    
          26   5.09901953       5.92233086    
          27   5.19615221       5.95902681    
          28   5.29150248       6.02395201    
          29   5.38516474       6.03357267    
          30   5.47722578       6.14214945    
          31   5.56776428       6.26146936    
          32   5.65685415       6.27694225    
          33   5.74456263       6.36458969    
          34   5.83095169       6.39359045    
          35   5.91608000       6.41170788    
          36   6.00000000       6.48135805    
          37   6.08276272       6.72904158    
          38   6.16441393       6.73290443    
          39   6.24499798       6.77318239    
          40   6.32455540       6.80734921    
          41   6.40312433       6.81278229    
          42   6.48074055       6.83183718    
          43   6.55743837       6.84076023    
          44   6.63324976       6.86410952    
          45   6.70820379       6.92228270    
          46   6.78233004       6.92603779    
          47   6.85565472       6.94938850    
          48   6.92820311       7.00285673    
          49   7.00000000       7.03434420    
          50   7.07106781       7.05152464    
          51   7.14142847       7.06201124    
          52   7.21110249       7.13876772    
          53   7.28010988       7.16114521    
          54   7.34846926       7.18971491    
          55   7.41619825       7.25630760    
          56   7.48331499       7.45345545    
          57   7.54983425       7.51505184    
          58   7.61577320       7.56187820    
          59   7.68114567       7.58577585    
          60   7.74596691       7.58709431    
          61   7.81024981       7.60355186    
          62   7.87400770       7.62509012    
          63   7.93725395       7.70986366    
          64   8.00000000       7.76736784    
          65   8.06225777       7.78382969    
          66   8.12403870       7.89911366    
          67   8.18535233       7.95487261    
          68   8.24621105       7.97721767    
          69   8.30662346       8.06858063    
          70   8.36660004       8.07502365    
          71   8.42614937       8.11369228    
          72   8.48528099       8.25445366    
          73   8.54400349       8.27405548    
          74   8.60232544       8.32526302    
          75   8.66025448       8.42092609    
          76   8.71779823       8.43350506    
          77   8.77496433       8.56247616    
          78   8.83176041       8.60395241    
          79   8.88819408       8.66937160    
          80   8.94427204       8.73155212    
          81   9.00000000       8.75648308    
          82   9.05538559       8.77200127    
          83   9.11043358       8.87682343    
          84   9.16515160       8.89719105    
          85   9.21954441       8.93711376    
          86   9.27361870       8.94002247    
          87   9.32737923       9.04367161    
          88   9.38083172       9.12874603    
          89   9.43398094       9.17703629    
          90   9.48683262       9.23980522    
          91   9.53939247       9.38456154    
          92   9.59166336       9.43323898    
          93   9.64365101       9.54840279    
          94   9.69536018       9.55855656    
          95   9.74679470       9.56566811    
          96   9.79795933       9.58874321    
          97   9.84885788       9.60177040    
          98   9.89949512       9.63223743    
          99   9.94987392       9.63576698    
         100   10.0000000       9.74976921    
         101   10.0498753       10.0053988    
         102   10.0995045       10.0807743    
         103   10.1488914       10.1037617    
         104   10.1980391       10.1442595    
         105   10.2469511       10.1541128    
         106   10.2956305       10.1734953    
         107   10.3440800       10.2698593    
         108   10.3923044       10.3165884    
         109   10.4403067       10.4154692    
         110   10.4880886       10.4250660    
         111   10.5356541       10.4634600    
         112   10.5830050       10.4822702    
         113   10.6301460       10.4832249    
         114   10.6770782       10.5632381    
         115   10.7238054       10.5732679    
         116   10.7703295       10.6006603    
         117   10.8166542       10.6104670    
         118   10.8627806       10.6138592    
         119   10.9087124       10.6853170    
         120   10.9544516       10.7250175    
         121   11.0000000       10.7627134    
         122   11.0453606       10.9740601    
         123   11.0905361       10.9924517    
         124   11.1355286       11.0495253    
         125   11.1803398       11.0781765    
         126   11.2249718       11.1074753    
         127   11.2694273       11.2107983    
         128   11.3137083       11.2131176    
         129   11.3578167       11.3600178    
         130   11.4017544       11.3991232    
         131   11.4455233       11.4191942    
         132   11.4891253       11.4751902    
         133   11.5325623       11.5017385    
         134   11.5758371       11.5511036    
         135   11.6189499       11.5722942    
         136   11.6619034       11.6552992    
         137   11.7046995       11.6745882    
         138   11.7473402       11.7116184    
         139   11.7898264       11.7297058    
         140   11.8321600       11.7492132    
         141   11.8743420       11.8077097    
         142   11.9163752       11.8101654    
         143   11.9582605       11.8414526    
         144   12.0000000       11.9344034    
         145   12.0415945       11.9569225    
         146   12.0830460       12.0377741    
         147   12.1243553       12.1923752    
         148   12.1655254       12.1990976    
         149   12.2065554       12.2158909    
         150   12.2474489       12.2265291    
         151   12.2882061       12.2788439    
         152   12.3288279       12.2848682    
         153   12.3693171       12.2876358    
         154   12.4096737       12.3313417    
         155   12.4498997       12.3748941    
         156   12.4899960       12.4552002    
         157   12.5299644       12.4875937    
         158   12.5698051       12.5071173    
         159   12.6095200       12.5117550    
         160   12.6491108       12.5278893    
         161   12.6885777       12.6274300    
         162   12.7279224       12.6531420    
         163   12.7671452       12.6623058    
         164   12.8062487       12.6765928    
         165   12.8452330       12.6791162    
         166   12.8840990       12.7097597    
         167   12.9228477       12.7415066    
         168   12.9614811       12.7481766    
         169   13.0000000       12.7755232    
         170   13.0384045       12.8084345    
         171   13.0766964       12.8092155    
         172   13.1148767       12.8148355    
         173   13.1529465       12.8174877    
         174   13.1909056       12.8195162    
         175   13.2287569       12.8345623    
         176   13.2664995       12.9420242    
         177   13.3041344       12.9800615    
         178   13.3416643       13.0529690    
         179   13.3790884       13.2417517    
         180   13.4164076       13.3755751    
         181   13.4536238       13.4326468    
         182   13.4907379       13.4523602    
         183   13.5277491       13.4883652    
         184   13.5646601       13.5552940    
         185   13.6014709       13.6508608    
         186   13.6381817       13.6976643    
         187   13.6747942       13.6979561    
         188   13.7113094       13.7017517    
         189   13.7477274       13.7140808    
         190   13.7840490       13.7284374    
         191   13.8202753       13.7366667    
         192   13.8564062       13.7372484    
         193   13.8924437       13.7786064    
         194   13.9283886       13.8311243    
         195   13.9642401       13.8704720    
         196   14.0000000       13.9281731    
         197   14.0356684       13.9532080    
         198   14.0712471       13.9608021    
         199   14.1067362       13.9754782    
         200   14.1421356       13.9789839    
         201   14.1774473       14.0185595    
         202   14.2126703       14.0413675    
         203   14.2478065       14.0741606    
         204   14.2828569       14.2706690    
         205   14.3178215       14.3135605    
         206   14.3527002       14.3446159    
         207   14.3874950       14.3975687    
         208   14.4222050       14.4536505    
         209   14.4568319       14.5119953    
         210   14.4913769       14.6054783    
         211   14.5258389       14.6717415    
         212   14.5602198       14.7422523    
         213   14.5945196       14.7732191    
         214   14.6287384       14.9220638    
         215   14.6628780       14.9359970    
         216   14.6969385       14.9443636    
         217   14.7309198       14.9839249    
         218   14.7648230       14.9937983    
         219   14.7986488       15.0293045    
         220   14.8323965       15.0434036    
         221   14.8660688       15.0626688    
         222   14.8996649       15.0762730    
         223   14.9331846       15.1242847    
         224   14.9666300       15.1602116    
         225   15.0000000       15.2602091    
         226   15.0332966       15.2971888    
         227   15.0665188       15.3293839    
         228   15.0996685       15.3505697    
         229   15.1327457       15.3540220    
         230   15.1657505       15.3885021    
         231   15.1986837       15.4155121    
         232   15.2315464       15.4663506    
         233   15.2643375       15.4945154    
         234   15.2970581       15.5257854    
         235   15.3297100       15.5567989    
         236   15.3622913       15.6194754    
         237   15.3948040       15.6476841    
         238   15.4272490       15.6510696    
         239   15.4596252       15.6638441    
         240   15.4919338       15.7027388    
         241   15.5241747       15.7074509    
         242   15.5563488       15.7320061    
         243   15.5884571       15.7782764    
         244   15.6204996       15.8111982    
         245   15.6524763       15.9093056    
         246   15.6843872       15.9680929    
         247   15.7162333       15.9884338    
         248   15.7480154       16.0095596    
         249   15.7797337       16.0773754    
         250   15.8113880       16.0893764    
         251   15.8429794       16.0949059    
         252   15.8745079       16.1093140    
         253   15.9059734       16.1666317    
         254   15.9373770       16.1980858    
         255   15.9687195       16.3468037    
         256   16.0000000       16.3654518    
         257   16.0312195       16.3670406    
         258   16.0623779       16.3803539    
         259   16.0934772       16.3847485    
         260   16.1245155       16.4362411    
         261   16.1554947       16.4487076    
         262   16.1864147       16.4553337    
         263   16.2172756       16.4865398    
         264   16.2480774       16.5002422    
         265   16.2788200       16.5029697    
         266   16.3095074       16.5272503    
         267   16.3401356       16.5785999    
         268   16.3707047       16.6294918    
         269   16.4012203       16.6521473    
         270   16.4316769       16.7106552    
         271   16.4620781       16.7137661    
         272   16.4924221       16.7201080    
         273   16.5227108       16.7223206    
         274   16.5529461       16.7611465    
         275   16.5831242       16.7912483    
         276   16.6132469       16.7972622    
         277   16.6433163       16.8047028    
         278   16.6733322       16.8185616    
         279   16.7032928       16.8452969    
         280   16.7332001       16.8584099    
         281   16.7630539       16.8624439    
         282   16.7928562       16.8838978    
         283   16.8226032       16.9208755    
         284   16.8522987       16.9341660    
         285   16.8819427       16.9413109    
         286   16.9115353       16.9466209    
         287   16.9410744       16.9704456    
         288   16.9705620       17.0403633    
         289   17.0000000       17.0930977    
         290   17.0293865       17.1581478    
         291   17.0587215       17.2219048    
         292   17.0880070       17.2240524    
         293   17.1172428       17.2864113    
         294   17.1464291       17.3161201    
         295   17.1755638       17.3711262    
         296   17.2046509       17.3748665    
         297   17.2336884       17.3827496    
         298   17.2626762       17.4104004    
         299   17.2916164       17.4359398    
         300   17.3205090       17.4786167    
         301   17.3493519       17.5109100    
         302   17.3781471       17.5442295    
         303   17.4068947       17.5502701    
         304   17.4355965       17.5669003    
         305   17.4642487       17.5881214    
         306   17.4928551       17.6074409    
         307   17.5214157       17.6120987    
         308   17.5499287       17.6441498    
         309   17.5783958       17.6724644    
         310   17.6068172       17.6822510    
         311   17.6351929       17.7375870    
         312   17.6635208       17.7644577    
         313   17.6918068       17.7681179    
         314   17.7200451       17.7816753    
         315   17.7482395       17.8224010    
         316   17.7763882       17.8590031    
         317   17.8044930       17.9140720    
         318   17.8325539       17.9449711    
         319   17.8605709       17.9619598    
         320   17.8885441       17.9794331    
         321   17.9164734       18.0314159    
         322   17.9443588       18.0567989    
         323   17.9722004       18.0656586    
         324   18.0000000       18.0692558    
         325   18.0277557       18.1181126    
         326   18.0554695       18.1245689    
         327   18.0831413       18.1499863    
         328   18.1107712       18.1515846    
         329   18.1383572       18.1538429    
         330   18.1659012       18.2453289    
         331   18.1934052       18.2677307    
         332   18.2208672       18.2844200    
         333   18.2482872       18.2887955    
         334   18.2756672       18.3138199    
         335   18.3030052       18.4171658    
         336   18.3303032       18.4348049    
         337   18.3575592       18.5188560    
         338   18.3847771       18.5526276    
         339   18.4119530       18.5924721    
         340   18.4390888       18.6341629    
         341   18.4661846       18.6537399    
         342   18.4932423       18.6644573    
         343   18.5202599       18.8069134    
         344   18.5472374       18.8152599    
         345   18.5741749       18.8673267    
         346   18.6010761       18.8949718    
         347   18.6279354       18.9288139    
         348   18.6547585       18.9602737    
         349   18.6815414       18.9721375    
         350   18.7082863       19.0481491    
         351   18.7349949       19.0515614    
         352   18.7616634       19.0770016    
         353   18.7882938       19.0936127    
         354   18.8148880       19.0937157    
         355   18.8414440       19.0989532    
         356   18.8679619       19.1174278    
         357   18.8944435       19.2188969    
         358   18.9208870       19.2401657    
         359   18.9472961       19.2614117    
         360   18.9736652       19.2759953    
         361   19.0000000       19.2928486    
         362   19.0262985       19.3117580    
         363   19.0525589       19.3608379    
         364   19.0787849       19.3741055    
         365   19.1049728       19.3992786    
         366   19.1311264       19.4141178    
         367   19.1572437       19.4704914    
         368   19.1833267       19.4807606    
         369   19.2093735       19.4877911    
         370   19.2353840       19.5153790    
         371   19.2613602       19.5191193    
         372   19.2873020       19.5600624    
         373   19.3132076       19.5777416    
         374   19.3390789       19.7004566    
         375   19.3649158       19.7042122    
         376   19.3907204       19.7093372    
         377   19.4164886       19.7460880    
         378   19.4422226       19.7686119    
         379   19.4679222       19.7789783    
         380   19.4935894       19.7802429    
         381   19.5192204       19.7881775    
         382   19.5448208       19.8328018    
         383   19.5703850       19.8445969    
         384   19.5959187       19.8971348    
         385   19.6214161       19.9253597    
         386   19.6468830       19.9406624    
         387   19.6723156       19.9504890    
         388   19.6977158       19.9938488    
         389   19.7230835       20.0052986    
         390   19.7484169       20.0781479    
         391   19.7737198       20.1482010    
         392   19.7989902       20.1740437    
         393   19.8242283       20.1742916    
         394   19.8494339       20.1814270    
         395   19.8746071       20.2455425    
         396   19.8997478       20.2947292    
         397   19.9248581       20.3048267    
         398   19.9499378       20.3239765    
         399   19.9749851       20.3576527    
         400   20.0000000       20.3711071    
         401   20.0249844       20.3752785    
         402   20.0499382       20.3924007    
         403   20.0748596       20.4131813    
         404   20.0997505       20.4369278    
         405   20.1246109       20.4577122    
         406   20.1494408       20.4823837    
         407   20.1742401       20.5224266    
         408   20.1990089       20.5548534    
         409   20.2237492       20.5645809    
         410   20.2484570       20.5955334    
         411   20.2731342       20.6266327    
         412   20.2977829       20.6367149    
         413   20.3224010       20.6826496    
         414   20.3469906       20.7074871    
         415   20.3715496       20.7253475    
         416   20.3960781       20.8201828    
